d_electrode[mm], C0[F]
0.001,-2.36350E-012
0.002,-2.19000E-012
0.003,-2.08850E-012
0.004,-2.01650E-012
0.005,-1.96070E-012
0.006,-1.91510E-012
0.007,-1.87660E-012
0.008,-1.84320E-012
0.009,-1.81370E-012
0.01,-1.78740E-012
0.011,-1.76350E-012
0.012,-1.74180E-012
0.013,-1.72180E-012
0.014,-1.70330E-012
0.015,-1.68600E-012
0.016,-1.66990E-012
0.017,-1.65480E-012
0.018,-1.64050E-012
0.019,-1.62700E-012
0.02,-1.61420E-012
0.021,-1.60200E-012
0.022,-1.59040E-012
0.023,-1.57930E-012
0.024,-1.56870E-012
0.025,-1.55850E-012
0.026,-1.54870E-012
0.027,-1.53930E-012
0.028,-1.53020E-012
0.029,-1.52140E-012
0.03,-1.51300E-012
0.031,-1.50480E-012
0.032,-1.49690E-012
0.033,-1.48920E-012
0.034,-1.48180E-012
0.035,-1.47450E-012
0.036,-1.46750E-012
0.037,-1.46070E-012
0.038,-1.45410E-012
0.039,-1.44760E-012
0.04,-1.44120E-012
0.041,-1.43510E-012
0.042,-1.42910E-012
0.043,-1.42320E-012
0.044,-1.41750E-012
0.045,-1.41190E-012
0.046,-1.40650E-012
0.047,-1.40110E-012
0.048,-1.39580E-012
0.049,-1.39070E-012
0.05,-1.38570E-012
0.051,-1.38080E-012
0.052,-1.37590E-012
0.053,-1.37120E-012
0.054,-1.36650E-012
0.055,-1.36200E-012
0.056,-1.35750E-012
0.057,-1.35310E-012
0.058,-1.34880E-012
0.059,-1.34450E-012
0.06,-1.34030E-012
0.061,-1.33620E-012
0.062,-1.33210E-012
0.063,-1.32820E-012
0.064,-1.32430E-012
0.065,-1.32040E-012
0.066,-1.31660E-012
0.067,-1.31290E-012
0.068,-1.30920E-012
0.069,-1.30560E-012
0.07,-1.30200E-012
0.071,-1.29850E-012
0.072,-1.29500E-012
0.073,-1.29150E-012
0.074,-1.28820E-012
0.075,-1.28480E-012
0.076,-1.28150E-012
0.077,-1.27830E-012
0.078,-1.27510E-012
0.079,-1.27190E-012
0.08,-1.26880E-012
0.081,-1.26570E-012
0.082,-1.26270E-012
0.083,-1.25970E-012
0.084,-1.25670E-012
0.085,-1.25380E-012
0.086,-1.25090E-012
0.087,-1.24800E-012
0.088,-1.24520E-012
0.089,-1.24230E-012
0.09,-1.23960E-012
0.091,-1.23680E-012
0.092,-1.23410E-012
0.093,-1.23140E-012
0.094,-1.22880E-012
0.095,-1.22620E-012
0.096,-1.22360E-012
0.097,-1.22100E-012
0.098,-1.21840E-012
0.099,-1.21590E-012
0.1,-1.21340E-012
0.101,-1.21100E-012
0.102,-1.20850E-012
0.103,-1.20610E-012
0.104,-1.20370E-012
0.105,-1.20130E-012
0.106,-1.19900E-012
0.107,-1.19670E-012
0.108,-1.19440E-012
0.109,-1.19210E-012
0.11,-1.18980E-012
0.111,-1.18760E-012
0.112,-1.18540E-012
0.113,-1.18320E-012
0.114,-1.18100E-012
0.115,-1.17880E-012
0.116,-1.17670E-012
0.117,-1.17460E-012
0.118,-1.17250E-012
0.119,-1.17040E-012
0.12,-1.16830E-012
0.121,-1.16620E-012
0.122,-1.16420E-012
0.123,-1.16210E-012
0.124,-1.16020E-012
0.125,-1.15820E-012
0.126,-1.15620E-012
0.127,-1.15420E-012
0.128,-1.15230E-012
0.129,-1.15040E-012
0.13,-1.14850E-012
0.131,-1.14660E-012
0.132,-1.14470E-012
0.133,-1.14280E-012
0.134,-1.14100E-012
0.135,-1.13910E-012
0.136,-1.13730E-012
0.137,-1.13550E-012
0.138,-1.13370E-012
0.139,-1.13190E-012
0.14,-1.13020E-012
0.141,-1.12840E-012
0.142,-1.12670E-012
0.143,-1.12490E-012
0.144,-1.12320E-012
0.145,-1.12150E-012
0.146,-1.11980E-012
0.147,-1.11810E-012
0.148,-1.11640E-012
0.149,-1.11470E-012
0.15,-1.11310E-012
0.151,-1.11150E-012
0.152,-1.10980E-012
0.153,-1.10820E-012
0.154,-1.10660E-012
0.155,-1.10500E-012
0.156,-1.10340E-012
0.157,-1.10180E-012
0.158,-1.10030E-012
0.159,-1.09870E-012
0.16,-1.09710E-012
0.161,-1.09560E-012
0.162,-1.09410E-012
0.163,-1.09260E-012
0.164,-1.09110E-012
0.165,-1.08960E-012
0.166,-1.08810E-012
0.167,-1.08660E-012
0.168,-1.08510E-012
0.169,-1.08370E-012
0.17,-1.08220E-012
0.171,-1.08070E-012
0.172,-1.07930E-012
0.173,-1.07790E-012
0.174,-1.07640E-012
0.175,-1.07510E-012
0.176,-1.07370E-012
0.177,-1.07230E-012
0.178,-1.07090E-012
0.179,-1.06950E-012
0.18,-1.06810E-012
0.181,-1.06680E-012
0.182,-1.06540E-012
0.183,-1.06400E-012
0.184,-1.06270E-012
0.185,-1.06140E-012
0.186,-1.06010E-012
0.187,-1.05870E-012
0.188,-1.05740E-012
0.189,-1.05610E-012
0.19,-1.05480E-012
0.191,-1.05350E-012
0.192,-1.05220E-012
0.193,-1.05090E-012
0.194,-1.04970E-012
0.195,-1.04840E-012
0.196,-1.04710E-012
0.197,-1.04590E-012
0.198,-1.04460E-012
0.199,-1.04340E-012
0.2,-1.04220E-012
0.201,-1.04090E-012
0.202,-1.03970E-012
0.203,-1.03850E-012
0.204,-1.03730E-012
0.205,-1.03610E-012
0.206,-1.03490E-012
0.207,-1.03370E-012
0.208,-1.03250E-012
0.209,-1.03130E-012
0.21,-1.03020E-012
0.211,-1.02900E-012
0.212,-1.02780E-012
0.213,-1.02660E-012
0.214,-1.02550E-012
0.215,-1.02430E-012
0.216,-1.02320E-012
0.217,-1.02210E-012
0.218,-1.02100E-012
0.219,-1.01980E-012
0.22,-1.01870E-012
0.221,-1.01760E-012
0.222,-1.01650E-012
0.223,-1.01540E-012
0.224,-1.01430E-012
0.225,-1.01320E-012
0.226,-1.01210E-012
0.227,-1.01100E-012
0.228,-1.00990E-012
0.229,-1.00890E-012
0.23,-1.00780E-012
0.231,-1.00680E-012
0.232,-1.00570E-012
0.233,-1.00470E-012
0.234,-1.00350E-012
0.235,-1.00250E-012
0.236,-1.00150E-012
0.237,-1.00040E-012
0.238,-9.99380E-013
0.239,-9.98360E-013
0.24,-9.97330E-013
0.241,-9.96310E-013
0.242,-9.95290E-013
0.243,-9.94280E-013
0.244,-9.93270E-013
0.245,-9.92260E-013
0.246,-9.91260E-013
0.247,-9.90290E-013
0.248,-9.89300E-013
0.249,-9.88310E-013
0.25,-9.87320E-013
0.251,-9.86340E-013
0.252,-9.85370E-013
0.253,-9.84400E-013
0.254,-9.83420E-013
0.255,-9.82450E-013
0.256,-9.81490E-013
0.257,-9.80540E-013
0.258,-9.79590E-013
0.259,-9.78650E-013
0.26,-9.77700E-013
0.261,-9.76750E-013
0.262,-9.75820E-013
0.263,-9.74880E-013
0.264,-9.73950E-013
0.265,-9.73020E-013
0.266,-9.72100E-013
0.267,-9.71180E-013
0.268,-9.70270E-013
0.269,-9.69360E-013
0.27,-9.68480E-013
0.271,-9.67580E-013
0.272,-9.66680E-013
0.273,-9.65780E-013
0.274,-9.64910E-013
0.275,-9.63990E-013
0.276,-9.63040E-013
0.277,-9.62150E-013
0.278,-9.61280E-013
0.279,-9.60400E-013
0.28,-9.59540E-013
0.281,-9.58670E-013
0.282,-9.57800E-013
0.283,-9.56940E-013
0.284,-9.56070E-013
0.285,-9.55210E-013
0.286,-9.54360E-013
0.287,-9.53490E-013
0.288,-9.52640E-013
0.289,-9.51800E-013
0.29,-9.50950E-013
0.291,-9.50100E-013
0.292,-9.49260E-013
0.293,-9.48430E-013
0.294,-9.47590E-013
0.295,-9.46760E-013
0.296,-9.45930E-013
0.297,-9.45100E-013
0.298,-9.44280E-013
0.299,-9.43460E-013
0.3,-9.42650E-013
0.301,-9.41830E-013
0.302,-9.41020E-013
0.303,-9.40210E-013
0.304,-9.39410E-013
0.305,-9.38600E-013
0.306,-9.37810E-013
0.307,-9.37010E-013
0.308,-9.36210E-013
0.309,-9.35420E-013
0.31,-9.34630E-013
0.311,-9.33860E-013
0.312,-9.33070E-013
0.313,-9.32280E-013
0.314,-9.31500E-013
0.315,-9.30710E-013
0.316,-9.29940E-013
0.317,-9.29160E-013
0.318,-9.28420E-013
0.319,-9.27650E-013
0.32,-9.26890E-013
0.321,-9.26120E-013
0.322,-9.25370E-013
0.323,-9.24610E-013
0.324,-9.23860E-013
0.325,-9.23120E-013
0.326,-9.22370E-013
0.327,-9.21620E-013
0.328,-9.20880E-013
0.329,-9.20130E-013
0.33,-9.19340E-013
0.331,-9.18610E-013
0.332,-9.17870E-013
0.333,-9.17130E-013
0.334,-9.16410E-013
0.335,-9.15680E-013
0.336,-9.14950E-013
0.337,-9.14220E-013
0.338,-9.13500E-013
0.339,-9.12780E-013
0.34,-9.12060E-013
0.341,-9.11340E-013
0.342,-9.10620E-013
0.343,-9.09910E-013
0.344,-9.09200E-013
0.345,-9.08500E-013
0.346,-9.07800E-013
0.347,-9.07090E-013
0.348,-9.06390E-013
0.349,-9.05690E-013
0.35,-9.04990E-013
0.351,-9.04300E-013
0.352,-9.03600E-013
0.353,-9.02910E-013
0.354,-9.02220E-013
0.355,-9.01540E-013
0.356,-9.00860E-013
0.357,-9.00170E-013
0.358,-8.99490E-013
0.359,-8.98810E-013
0.36,-8.98130E-013
0.361,-8.97450E-013
0.362,-8.96770E-013
0.363,-8.96100E-013
0.364,-8.95430E-013
0.365,-8.94760E-013
0.366,-8.94100E-013
0.367,-8.93430E-013
0.368,-8.92770E-013
0.369,-8.92090E-013
0.37,-8.91430E-013
0.371,-8.90770E-013
0.372,-8.90120E-013
0.373,-8.89460E-013
0.374,-8.88810E-013
0.375,-8.88180E-013
0.376,-8.87530E-013
0.377,-8.86890E-013
0.378,-8.86250E-013
0.379,-8.85600E-013
0.38,-8.84970E-013
0.381,-8.84330E-013
0.382,-8.83690E-013
0.383,-8.83040E-013
0.384,-8.82440E-013
0.385,-8.81810E-013
0.386,-8.81180E-013
0.387,-8.80550E-013
0.388,-8.79920E-013
0.389,-8.79290E-013
0.39,-8.78660E-013
0.391,-8.78040E-013
0.392,-8.77420E-013
0.393,-8.76800E-013
0.394,-8.76180E-013
0.395,-8.75530E-013
0.396,-8.74920E-013
0.397,-8.74300E-013
0.398,-8.73690E-013
0.399,-8.73080E-013
0.4,-8.72470E-013
0.401,-8.71860E-013
0.402,-8.71260E-013
0.403,-8.70650E-013
0.404,-8.70050E-013
0.405,-8.69470E-013
0.406,-8.68850E-013
0.407,-8.68270E-013
0.408,-8.67660E-013
0.409,-8.67060E-013
0.41,-8.66450E-013
0.411,-8.65870E-013
0.412,-8.65280E-013
0.413,-8.64690E-013
0.414,-8.64100E-013
0.415,-8.63510E-013
0.416,-8.62930E-013
0.417,-8.62350E-013
0.418,-8.61770E-013
0.419,-8.61190E-013
0.42,-8.60590E-013
0.421,-8.60030E-013
0.422,-8.59450E-013
0.423,-8.58880E-013
0.424,-8.58300E-013
0.425,-8.57740E-013
0.426,-8.57180E-013
0.427,-8.56610E-013
0.428,-8.56040E-013
0.429,-8.55480E-013
0.43,-8.54910E-013
0.431,-8.54350E-013
0.432,-8.53790E-013
0.433,-8.53230E-013
0.434,-8.52670E-013
0.435,-8.52110E-013
0.436,-8.51550E-013
0.437,-8.51000E-013
0.438,-8.50420E-013
0.439,-8.49870E-013
0.44,-8.49320E-013
0.441,-8.48790E-013
0.442,-8.48240E-013
0.443,-8.47690E-013
0.444,-8.47120E-013
0.445,-8.46580E-013
0.446,-8.46030E-013
0.447,-8.45490E-013
0.448,-8.44950E-013
0.449,-8.44410E-013
0.45,-8.43870E-013
0.451,-8.43340E-013
0.452,-8.42800E-013
0.453,-8.42260E-013
0.454,-8.41730E-013
0.455,-8.41200E-013
0.456,-8.40670E-013
0.457,-8.40130E-013
0.458,-8.39600E-013
0.459,-8.39070E-013
0.46,-8.38540E-013
0.461,-8.38020E-013
0.462,-8.37490E-013
0.463,-8.36980E-013
0.464,-8.36450E-013
0.465,-8.35930E-013
0.466,-8.35410E-013
0.467,-8.34890E-013
0.468,-8.34370E-013
0.469,-8.33860E-013
0.47,-8.33340E-013
0.471,-8.32820E-013
0.472,-8.32310E-013
0.473,-8.31800E-013
0.474,-8.31290E-013
0.475,-8.30780E-013
0.476,-8.30270E-013
0.477,-8.29760E-013
0.478,-8.29250E-013
0.479,-8.28740E-013
0.48,-8.28240E-013
0.481,-8.27730E-013
0.482,-8.27230E-013
0.483,-8.26720E-013
0.484,-8.26220E-013
0.485,-8.25740E-013
0.486,-8.25240E-013
0.487,-8.24740E-013
0.488,-8.24240E-013
0.489,-8.23750E-013
0.49,-8.23250E-013
0.491,-8.22760E-013
0.492,-8.22270E-013
0.493,-8.21770E-013
0.494,-8.21280E-013
0.495,-8.20790E-013
0.496,-8.20300E-013
0.497,-8.19820E-013
0.498,-8.19330E-013
0.499,-8.18850E-013
0.5,-8.18360E-013
0.501,-8.17850E-013
0.502,-8.17370E-013
0.503,-8.16900E-013
0.504,-8.16420E-013
0.505,-8.15940E-013
0.506,-8.15460E-013
0.507,-8.14990E-013
0.508,-8.14510E-013
0.509,-8.14030E-013
0.51,-8.13560E-013
0.511,-8.13090E-013
0.512,-8.12610E-013
0.513,-8.12140E-013
0.514,-8.11650E-013
0.515,-8.11170E-013
0.516,-8.10710E-013
0.517,-8.10280E-013
0.518,-8.09810E-013
0.519,-8.09340E-013
0.52,-8.08880E-013
0.521,-8.08410E-013
0.522,-8.07950E-013
0.523,-8.07480E-013
0.524,-8.07030E-013
0.525,-8.06570E-013
0.526,-8.06110E-013
0.527,-8.05630E-013
0.528,-8.05180E-013
0.529,-8.04730E-013
0.53,-8.04270E-013
0.531,-8.03820E-013
0.532,-8.03360E-013
0.533,-8.02910E-013
0.534,-8.02460E-013
0.535,-8.02000E-013
0.536,-8.01550E-013
0.537,-8.01100E-013
0.538,-8.00660E-013
0.539,-8.00210E-013
0.54,-7.99760E-013
0.541,-7.99320E-013
0.542,-7.98870E-013
0.543,-7.98430E-013
0.544,-7.97980E-013
0.545,-7.97530E-013
0.546,-7.97090E-013
0.547,-7.96660E-013
0.548,-7.96220E-013
0.549,-7.95780E-013
0.55,-7.95340E-013
0.551,-7.94900E-013
0.552,-7.94460E-013
0.553,-7.94020E-013
0.554,-7.93580E-013
0.555,-7.93150E-013
0.556,-7.92710E-013
0.557,-7.92280E-013
0.558,-7.91850E-013
0.559,-7.91410E-013
0.56,-7.90980E-013
0.561,-7.90550E-013
0.562,-7.90120E-013
0.563,-7.89690E-013
0.564,-7.89260E-013
0.565,-7.88840E-013
0.566,-7.88410E-013
0.567,-7.87990E-013
0.568,-7.87560E-013
0.569,-7.87140E-013
0.57,-7.86720E-013
0.571,-7.86290E-013
0.572,-7.85870E-013
0.573,-7.85450E-013
0.574,-7.85030E-013
0.575,-7.84610E-013
0.576,-7.84190E-013
0.577,-7.83770E-013
0.578,-7.83360E-013
0.579,-7.82960E-013
0.58,-7.82550E-013
0.581,-7.82130E-013
0.582,-7.81720E-013
0.583,-7.81300E-013
0.584,-7.80890E-013
0.585,-7.80480E-013
0.586,-7.80030E-013
0.587,-7.79610E-013
0.588,-7.79190E-013
0.589,-7.78780E-013
0.59,-7.78370E-013
0.591,-7.77970E-013
0.592,-7.77560E-013
0.593,-7.77160E-013
0.594,-7.76750E-013
0.595,-7.76360E-013
0.596,-7.75950E-013
0.597,-7.75550E-013
0.598,-7.75140E-013
0.599,-7.74740E-013
0.6,-7.74340E-013
0.601,-7.73940E-013
0.602,-7.73540E-013
0.603,-7.73140E-013
0.604,-7.72740E-013
0.605,-7.72340E-013
0.606,-7.71940E-013
0.607,-7.71550E-013
0.608,-7.71150E-013
0.609,-7.70750E-013
0.61,-7.70360E-013
0.611,-7.69970E-013
0.612,-7.69580E-013
0.613,-7.69180E-013
0.614,-7.68790E-013
0.615,-7.68400E-013
0.616,-7.68010E-013
0.617,-7.67620E-013
0.618,-7.67230E-013
0.619,-7.66840E-013
0.62,-7.66460E-013
0.621,-7.66070E-013
0.622,-7.65680E-013
0.623,-7.65290E-013
0.624,-7.64910E-013
0.625,-7.64520E-013
0.626,-7.64140E-013
0.627,-7.63750E-013
0.628,-7.63370E-013
0.629,-7.62990E-013
0.63,-7.62610E-013
0.631,-7.62230E-013
0.632,-7.61850E-013
0.633,-7.61470E-013
0.634,-7.61090E-013
0.635,-7.60710E-013
0.636,-7.60330E-013
0.637,-7.59950E-013
0.638,-7.59580E-013
0.639,-7.59200E-013
0.64,-7.58820E-013
0.641,-7.58450E-013
0.642,-7.58070E-013
0.643,-7.57700E-013
0.644,-7.57330E-013
0.645,-7.56950E-013
0.646,-7.56580E-013
0.647,-7.56210E-013
0.648,-7.55840E-013
0.649,-7.55460E-013
0.65,-7.55100E-013
0.651,-7.54730E-013
0.652,-7.54370E-013
0.653,-7.54000E-013
0.654,-7.53630E-013
0.655,-7.53260E-013
0.656,-7.52890E-013
0.657,-7.52530E-013
0.658,-7.52160E-013
0.659,-7.51800E-013
0.66,-7.51430E-013
0.661,-7.51080E-013
0.662,-7.50710E-013
0.663,-7.50350E-013
0.664,-7.49990E-013
0.665,-7.49630E-013
0.666,-7.49260E-013
0.667,-7.48900E-013
0.668,-7.48540E-013
0.669,-7.48180E-013
0.67,-7.47830E-013
0.671,-7.47470E-013
0.672,-7.47110E-013
0.673,-7.46750E-013
0.674,-7.46400E-013
0.675,-7.46040E-013
0.676,-7.45690E-013
0.677,-7.45330E-013
0.678,-7.44980E-013
0.679,-7.44620E-013
0.68,-7.44270E-013
0.681,-7.43920E-013
0.682,-7.43560E-013
0.683,-7.43210E-013
0.684,-7.42860E-013
0.685,-7.42510E-013
0.686,-7.42160E-013
0.687,-7.41810E-013
0.688,-7.41460E-013
0.689,-7.41110E-013
0.69,-7.40770E-013
0.691,-7.40420E-013
0.692,-7.40070E-013
0.693,-7.39730E-013
0.694,-7.39380E-013
0.695,-7.39040E-013
0.696,-7.38690E-013
0.697,-7.38350E-013
0.698,-7.38000E-013
0.699,-7.37660E-013
0.7,-7.37320E-013
0.701,-7.36990E-013
0.702,-7.36660E-013
0.703,-7.36320E-013
0.704,-7.35980E-013
0.705,-7.35640E-013
0.706,-7.35290E-013
0.707,-7.34960E-013
0.708,-7.34620E-013
0.709,-7.34280E-013
0.71,-7.33900E-013
0.711,-7.33560E-013
0.712,-7.33230E-013
0.713,-7.32890E-013
0.714,-7.32560E-013
0.715,-7.32220E-013
0.716,-7.31890E-013
0.717,-7.31550E-013
0.718,-7.31230E-013
0.719,-7.30890E-013
0.72,-7.30560E-013
0.721,-7.30230E-013
0.722,-7.29900E-013
0.723,-7.29570E-013
0.724,-7.29240E-013
0.725,-7.28910E-013
0.726,-7.28580E-013
0.727,-7.28250E-013
0.728,-7.27930E-013
0.729,-7.27610E-013
0.73,-7.27270E-013
0.731,-7.26950E-013
0.732,-7.26620E-013
0.733,-7.26300E-013
0.734,-7.26000E-013
0.735,-7.25670E-013
0.736,-7.25350E-013
0.737,-7.25020E-013
0.738,-7.24700E-013
0.739,-7.24370E-013
0.74,-7.24050E-013
0.741,-7.23730E-013
0.742,-7.23410E-013
0.743,-7.23090E-013
0.744,-7.22760E-013
0.745,-7.22440E-013
0.746,-7.22120E-013
0.747,-7.21800E-013
0.748,-7.21480E-013
0.749,-7.21160E-013
0.75,-7.20850E-013
0.751,-7.20520E-013
0.752,-7.20200E-013
0.753,-7.19850E-013
0.754,-7.19530E-013
0.755,-7.19220E-013
0.756,-7.18900E-013
0.757,-7.18590E-013
0.758,-7.18270E-013
0.759,-7.17960E-013
0.76,-7.17650E-013
0.761,-7.17340E-013
0.762,-7.17020E-013
0.763,-7.16710E-013
0.764,-7.16390E-013
0.765,-7.16080E-013
0.766,-7.15760E-013
0.767,-7.15450E-013
0.768,-7.15140E-013
0.769,-7.14830E-013
0.77,-7.14520E-013
0.771,-7.14210E-013
0.772,-7.13890E-013
0.773,-7.13590E-013
0.774,-7.13280E-013
0.775,-7.12970E-013
0.776,-7.12670E-013
0.777,-7.12370E-013
0.778,-7.12060E-013
0.779,-7.11730E-013
0.78,-7.11420E-013
0.781,-7.11120E-013
0.782,-7.10810E-013
0.783,-7.10510E-013
0.784,-7.10200E-013
0.785,-7.09900E-013
0.786,-7.09590E-013
0.787,-7.09290E-013
0.788,-7.08990E-013
0.789,-7.08680E-013
0.79,-7.08380E-013
0.791,-7.08080E-013
0.792,-7.07780E-013
0.793,-7.07480E-013
0.794,-7.07180E-013
0.795,-7.06900E-013
0.796,-7.06600E-013
0.797,-7.06300E-013
0.798,-7.06000E-013
0.799,-7.05700E-013
0.8,-7.05400E-013
0.801,-7.05100E-013
0.802,-7.04800E-013
0.803,-7.04500E-013
0.804,-7.04210E-013
0.805,-7.03900E-013
0.806,-7.03610E-013
0.807,-7.03310E-013
0.808,-7.03020E-013
0.809,-7.02720E-013
0.81,-7.02440E-013
0.811,-7.02150E-013
0.812,-7.01860E-013
0.813,-7.01560E-013
0.814,-7.01270E-013
0.815,-7.00960E-013
0.816,-7.00660E-013
0.817,-7.00370E-013
0.818,-7.00080E-013
0.819,-6.99790E-013
0.82,-6.99490E-013
0.821,-6.99200E-013
0.822,-6.98910E-013
0.823,-6.98620E-013
0.824,-6.98330E-013
0.825,-6.98050E-013
0.826,-6.97760E-013
0.827,-6.97470E-013
0.828,-6.97170E-013
0.829,-6.96880E-013
0.83,-6.96590E-013
0.831,-6.96310E-013
0.832,-6.96020E-013
0.833,-6.95730E-013
0.834,-6.95450E-013
0.835,-6.95160E-013
0.836,-6.94880E-013
0.837,-6.94590E-013
0.838,-6.94310E-013
0.839,-6.94030E-013
0.84,-6.93740E-013
0.841,-6.93460E-013
0.842,-6.93190E-013
0.843,-6.92910E-013
0.844,-6.92630E-013
0.845,-6.92340E-013
0.846,-6.92060E-013
0.847,-6.91780E-013
0.848,-6.91500E-013
0.849,-6.91220E-013
0.85,-6.90940E-013
0.851,-6.90660E-013
0.852,-6.90380E-013
0.853,-6.90100E-013
0.854,-6.89820E-013
0.855,-6.89540E-013
0.856,-6.89270E-013
0.857,-6.88990E-013
0.858,-6.88710E-013
0.859,-6.88430E-013
0.86,-6.88160E-013
0.861,-6.87880E-013
0.862,-6.87610E-013
0.863,-6.87330E-013
0.864,-6.87050E-013
0.865,-6.86780E-013
0.866,-6.86500E-013
0.867,-6.86230E-013
0.868,-6.85960E-013
0.869,-6.85680E-013
0.87,-6.85410E-013
0.871,-6.85130E-013
0.872,-6.84860E-013
0.873,-6.84590E-013
0.874,-6.84320E-013
0.875,-6.84040E-013
0.876,-6.83760E-013
0.877,-6.83490E-013
0.878,-6.83210E-013
0.879,-6.82940E-013
0.88,-6.82670E-013
0.881,-6.82400E-013
0.882,-6.82130E-013
0.883,-6.81870E-013
0.884,-6.81600E-013
0.885,-6.81330E-013
0.886,-6.81060E-013
0.887,-6.80790E-013
0.888,-6.80520E-013
0.889,-6.80260E-013
0.89,-6.79990E-013
0.891,-6.79720E-013
0.892,-6.79450E-013
0.893,-6.79190E-013
0.894,-6.78920E-013
0.895,-6.78660E-013
0.896,-6.78390E-013
0.897,-6.78130E-013
0.898,-6.77860E-013
0.899,-6.77600E-013
0.9,-6.77330E-013
0.901,-6.77070E-013
0.902,-6.76810E-013
0.903,-6.76540E-013
0.904,-6.76280E-013
0.905,-6.76020E-013
0.906,-6.75760E-013
0.907,-6.75490E-013
0.908,-6.75230E-013
0.909,-6.74970E-013
0.91,-6.74710E-013
0.911,-6.74450E-013
0.912,-6.74190E-013
0.913,-6.73930E-013
0.914,-6.73670E-013
0.915,-6.73420E-013
0.916,-6.73160E-013
0.917,-6.72900E-013
0.918,-6.72640E-013
0.919,-6.72380E-013
0.92,-6.72120E-013
0.921,-6.71860E-013
0.922,-6.71600E-013
0.923,-6.71350E-013
0.924,-6.71090E-013
0.925,-6.70830E-013
0.926,-6.70570E-013
0.927,-6.70320E-013
0.928,-6.70060E-013
0.929,-6.69810E-013
0.93,-6.69550E-013
0.931,-6.69300E-013
0.932,-6.69040E-013
0.933,-6.68790E-013
0.934,-6.68530E-013
0.935,-6.68280E-013
0.936,-6.68030E-013
0.937,-6.67770E-013
0.938,-6.67520E-013
0.939,-6.67270E-013
0.94,-6.67020E-013
0.941,-6.66760E-013
0.942,-6.66510E-013
0.943,-6.66260E-013
0.944,-6.66010E-013
0.945,-6.65760E-013
0.946,-6.65510E-013
0.947,-6.65260E-013
0.948,-6.65010E-013
0.949,-6.64760E-013
0.95,-6.64510E-013
0.951,-6.64260E-013
0.952,-6.64010E-013
0.953,-6.63760E-013
0.954,-6.63510E-013
0.955,-6.63260E-013
0.956,-6.63010E-013
0.957,-6.62770E-013
0.958,-6.62520E-013
0.959,-6.62270E-013
0.96,-6.62020E-013
0.961,-6.61780E-013
0.962,-6.61530E-013
0.963,-6.61280E-013
0.964,-6.61040E-013
0.965,-6.60790E-013
0.966,-6.60550E-013
0.967,-6.60300E-013
0.968,-6.60060E-013
0.969,-6.59810E-013
0.97,-6.59570E-013
0.971,-6.59320E-013
0.972,-6.59080E-013
0.973,-6.58840E-013
0.974,-6.58590E-013
0.975,-6.58350E-013
0.976,-6.58110E-013
0.977,-6.57860E-013
0.978,-6.57620E-013
0.979,-6.57380E-013
0.98,-6.57140E-013
0.981,-6.56900E-013
0.982,-6.56650E-013
0.983,-6.56410E-013
0.984,-6.56170E-013
0.985,-6.55930E-013
0.986,-6.55690E-013
0.987,-6.55450E-013
0.988,-6.55220E-013
0.989,-6.54980E-013
0.99,-6.54740E-013
0.991,-6.54500E-013
0.992,-6.54260E-013
0.993,-6.54020E-013
0.994,-6.53780E-013
0.995,-6.53550E-013
0.996,-6.53310E-013
0.997,-6.53070E-013
0.998,-6.52830E-013
0.999,-6.52600E-013
1,-6.52360E-013
1.001,-6.52130E-013
1.002,-6.51890E-013
1.003,-6.51650E-013
1.004,-6.51420E-013
